wavelength (nm),Absorbance
800.0008545,0.018761614
798.9932861,0.0188642
797.9852905,0.018788779
797.0115967,0.020897072
796.0027466,0.01940191
794.9935303,0.021787159
793.9839478,0.020984408
793.008728,0.020579638
791.998291,0.019895002
790.9873657,0.020098539
790.0111084,0.019941723
788.9993896,0.020378046
787.9874878,0.021917878
787.0100098,0.022936258
785.9971924,0.022444909
784.9839478,0.020228371
784.005249,0.021742333
782.991333,0.021283107
782.0119019,0.020368902
780.9971924,0.02188989
780.0170898,0.020104285
779.0015259,0.02012915
777.9855347,0.022838326
777.0042725,0.020313727
775.9875488,0.020665335
775.0054932,0.020601569
773.9880981,0.021933369
773.0053101,0.024309248
771.9870605,0.022700919
771.0036011,0.023938157
769.9844971,0.023861302
769.0003052,0.022243621
768.015686,0.023133062
766.9954834,0.023214839
766.0101929,0.022952823
764.9891968,0.023616662
764.0031128,0.023799501
763.0167236,0.023441795
761.9946289,0.023384096
761.0073853,0.02393947
759.9845581,0.02385515
758.9966431,0.02322235
758.0083618,0.023426196
756.984375,0.024994796
755.9954224,0.024327645
755.0060425,0.022986202
754.0163574,0.024537489
752.9909058,0.024184212
752.0004272,0.024594409
751.0096436,0.024978044
749.9830933,0.02524606
748.9915771,0.025412321
747.9996338,0.026988264
747.0073853,0.026259357
746.0148315,0.025225511
744.9863892,0.027280539
743.993103,0.025528653
742.9995117,0.025693897
742.0054321,0.027756253
741.0111084,0.027728412
740.0163574,0.027362468
738.9857788,0.026204912
737.9903564,0.027125077
736.9945679,0.028166113
735.9984741,0.028537519
735.0020142,0.028090606
734.005249,0.028319599
733.0079956,0.02901038
732.010498,0.028548023
731.0126953,0.028849456
730.0144653,0.028682508
729.0159302,0.02932116
728.0170288,0.030011816
727.0178223,0.030222343
725.9825439,0.031068895
724.982605,0.030282985
723.9822998,0.030732522
723.017395,0.031074457
722.0164795,0.031031832
721.0151978,0.030871158
720.0135498,0.031722598
719.0115356,0.032503642
718.0092773,0.032607995
717.0065918,0.032303497
716.0036621,0.03270204
715.0003052,0.033390801
713.9966431,0.032797087
712.9926147,0.033520281
711.9882813,0.034123275
710.9835815,0.034426615
710.0145264,0.034391981
709.0091553,0.034328915
708.003479,0.034100931
706.9974976,0.034883913
705.9911499,0.035378031
704.9844971,0.035984512
704.0134277,0.036788002
703.0060425,0.03603429
701.9984131,0.036455419
700.9904175,0.036911115
699.9821167,0.037081648
699.0094604,0.037434548
698.0004883,0.038077366
696.9912109,0.038018338
696.0176392,0.038372282
695.0076294,0.03954627
693.9973755,0.03821167
692.9867554,0.040056001
692.0119629,0.03952058
691.0006714,0.041000526
689.9891357,0.040874686
689.0133667,0.041288611
688.0011597,0.042680349
686.9885864,0.041792043
686.0118408,0.043400433
684.9987793,0.043684933
683.9852295,0.044000641
683.0075684,0.044190492
681.9934082,0.044909585
681.0151978,0.046078261
680.0003662,0.045749936
678.9853516,0.046206769
678.0062256,0.046681952
676.9904175,0.048672706
676.0106812,0.048722427
674.9943237,0.049771931
674.0139771,0.049446024
672.9970093,0.051368598
672.0160522,0.052159026
670.9984741,0.051548552
670.0168457,0.054214135
668.9986572,0.053884614
668.0165405,0.054955143
666.9976196,0.056184936
666.0148926,0.057686273
664.9953613,0.059603382
664.0120239,0.060119148
662.9919434,0.061603088
662.0079346,0.061929561
660.9873047,0.063998394
660.0027466,0.065635867
659.0178833,0.06743975
657.9962769,0.069574051
657.0108643,0.071133241
655.9885864,0.072828777
655.0026245,0.075984813
654.0162964,0.077558324
652.993103,0.081196956
652.0062866,0.082685709
650.9825439,0.084987737
649.9950562,0.088419974
649.0073242,0.092256047
647.982666,0.095532954
646.9943237,0.098169208
646.0057373,0.103120007
645.0167847,0.10623467
643.9909668,0.109733522
643.0014648,0.115706332
642.0117188,0.119319543
640.9849854,0.125042737
639.9946899,0.130815715
639.0039673,0.13608864
638.0131226,0.140539631
636.9852295,0.148008362
635.9937134,0.154876709
635.0020142,0.160615072
634.0099487,0.168389455
633.0176392,0.17480512
631.9882813,0.18122083
630.9954224,0.189368174
630.0022583,0.195791677
629.0087891,0.203041613
628.0151367,0.210803047
626.984314,0.218780711
625.9900513,0.225567952
624.9954834,0.232442066
624.0006104,0.238108248
623.0055542,0.243739352
622.0101929,0.249699369
621.0145264,0.254815906
619.9817505,0.260510296
618.9855347,0.264370948
617.9890137,0.269023716
616.9923096,0.273844212
615.9953003,0.276500553
614.9980469,0.279967785
614.0004272,0.282802373
613.0026245,0.285442859
612.0045166,0.287072837
611.0061035,0.288162261
610.0075073,0.288889706
609.0085449,0.290667445
608.0094604,0.291232705
607.0100098,0.290820777
606.0103149,0.292503089
605.0103149,0.291520715
604.0101318,0.29157421
603.0095825,0.291213483
602.0087891,0.29018712
601.0077515,0.289870918
600.0064697,0.288748145
599.0049438,0.289082557
598.0030518,0.287839562
597.0010376,0.287936002
595.9985962,0.287280589
594.9960327,0.28647238
593.9931641,0.287820429
592.9899902,0.286500365
591.9865723,0.288284421
590.9829102,0.289255112
590.0162354,0.29042542
589.0120239,0.290985674
588.0076294,0.293063194
587.0029297,0.295001149
585.9979858,0.297622263
584.9927368,0.299952418
583.9873657,0.302126825
582.9816284,0.306461304
582.0129395,0.309679955
581.0067139,0.311989158
580.0001831,0.316311419
578.9934692,0.318765879
577.9865112,0.322295815
577.0165405,0.326112509
576.0090942,0.329386473
575.0013428,0.3343876
573.9934082,0.337650985
572.9851074,0.341416776
572.0140381,0.344067037
571.005249,0.348227292
569.9962769,0.351545811
568.9869995,0.354339063
568.0149536,0.357000232
567.005188,0.358881891
565.9952393,0.361196727
564.9849854,0.364250988
564.0119629,0.365387797
563.0012207,0.366434217
561.9902954,0.367556214
561.0165405,0.368341982
560.005127,0.369163573
558.9934082,0.370262146
557.9814453,0.369616151
557.0067139,0.369787067
555.9943848,0.370628953
554.9816284,0.369482368
554.0062866,0.36884293
552.9931641,0.368460655
552.0172729,0.367321581
551.0036621,0.365639538
549.9898071,0.365168095
549.0132446,0.364441693
547.9989624,0.362879038
546.984314,0.362455398
546.0071411,0.361948609
544.9920654,0.360634387
544.0144043,0.359842002
542.9989014,0.358480036
541.9831543,0.358014077
541.0047607,0.35722521
539.9885254,0.357091665
539.0096436,0.355972827
537.992981,0.355436593
537.0137939,0.355796993
535.996582,0.355320603
535.0169067,0.354742497
533.9992065,0.354655922
532.9813843,0.354228228
532.0010376,0.353892714
530.9827271,0.353412002
530.0019531,0.353488565
528.9831543,0.353551865
528.0018921,0.353361487
526.982666,0.352161855
526.0009155,0.352042317
524.9812622,0.351401538
523.9990845,0.351004422
523.0167847,0.349520594
521.9963989,0.348343223
521.0136108,0.348158687
519.9927979,0.346101075
519.0095825,0.345218658
517.9883423,0.343708903
517.0046997,0.341408879
515.9830322,0.340386748
514.9989014,0.338168681
514.0146484,0.336464852
512.9923096,0.333725989
512.0075073,0.332617402
510.9847107,0.329848707
509.9995728,0.327440351
509.0142517,0.324943334
507.9908142,0.322416842
507.0050049,0.320021778
505.9811401,0.317200124
504.9949341,0.313907504
504.0085144,0.31207332
502.9839783,0.30949077
501.9971313,0.307800382
501.0101013,0.305211693
499.9849243,0.301981509
498.997467,0.299505085
498.0098572,0.297095716
496.9839783,0.295212537
495.9959412,0.292199463
495.0076904,0.290423274
493.9811707,0.287427276
492.9925232,0.285006702
492.0036621,0.282758653
491.0145569,0.280346543
489.9872742,0.278173506
488.9978333,0.275179714
488.0080872,0.272864193
487.0182495,0.270486563
485.9900513,0.268846542
484.9998169,0.265910834
484.0093384,0.263253242
483.0186768,0.261038333
481.989624,0.258045226
480.9985657,0.255591601
480.0072937,0.252754003
479.0157776,0.25020051
477.9860229,0.247284755
476.9941406,0.244347051
476.0020447,0.241461813
475.0098267,0.238881469
474.0173645,0.236345172
472.9865723,0.232689396
471.9937439,0.230102405
471.0006409,0.227060258
470.0074463,0.224794686
469.0140381,0.22173813
467.9821472,0.21881564
466.9883423,0.215712354
465.9943848,0.213044718
465.0001831,0.209818274
464.0057678,0.206480429
463.0112305,0.203910008
462.016449,0.20180957
460.9832153,0.199556708
459.9880981,0.196397871
458.9927673,0.193802446
457.9972229,0.192011222
457.0015564,0.188998863
456.0056458,0.18648015
455.009552,0.183921576
454.0133057,0.181535929
453.0168762,0.178861857
451.9818726,0.17722097
450.9851074,0.175432891
449.9880676,0.172508642
448.9908752,0.169202119
447.9934998,0.167460516
446.9959717,0.165192828
445.9981689,0.163001984
445.0002747,0.16092366
444.0021362,0.158177584
443.0038757,0.156272277
442.0054016,0.154717773
441.0067444,0.152511954
440.0079346,0.150035113
439.0089417,0.147880837
438.0097351,0.145755455
437.010376,0.143832654
436.0108643,0.141595438
435.0111084,0.140204638
434.0112,0.137821868
433.0111694,0.135862455
432.0108643,0.133823216
431.0104675,0.13240929
430.0097961,0.130852163
429.0090942,0.128775433
428.0081177,0.127479672
427.0069885,0.125284568
426.0056458,0.12350829
425.0041809,0.122136407
424.0025635,0.120010912
423.0006714,0.118805513
421.9987183,0.11674878
420.996582,0.116069205
419.9942322,0.114046298
418.9916687,0.112670519
417.9889832,0.11093165
416.9861755,0.109332182
415.9831238,0.108098105
415.0185547,0.106522515
414.0151672,0.105308071
413.0116272,0.103434369
412.0079651,0.101972468
411.0041199,0.100844257
410.000061,0.099546783
408.9958191,0.098139487
407.9914856,0.097364604
406.986969,0.095393151
405.9822998,0.093664221
405.0160828,0.093402356
404.0110168,0.091967233
403.0058594,0.090041697
402.0005188,0.08916083
400.9949646,0.088223509
399.9892883,0.087010138
398.9834595,0.085916229
398.0161438,0.08500313
397.0100098,0.083184779
396.0036621,0.082925335
394.9971619,0.081504397
393.9905396,0.080349468
392.9837036,0.079569437
392.0154724,0.07807254
391.0083618,0.077231921
390.0010681,0.075452246
388.9936523,0.075239547
387.9860229,0.073840708
387.0170593,0.072922677
386.0091553,0.072440669
385.0010986,0.070703171
383.9928589,0.07023561
382.9844666,0.06921804
382.0147095,0.068422608
381.006012,0.06725122
379.9971924,0.065976508
378.9881897,0.065796562
378.0178528,0.064672537
377.0085754,0.064589925
375.999115,0.06258519
374.989502,0.061932277
374.0185547,0.061043102
373.008667,0.061051533
371.9985962,0.060186431
370.9883728,0.059145093
370.0169067,0.058348224
369.0063782,0.058571026
367.9957275,0.056740399
366.9848938,0.056341786
366.0128174,0.05554251
365.0017395,0.05482417
363.9904785,0.054479484
363.0179749,0.054068986
362.0064697,0.052710526
360.994751,0.052164394
359.9828796,0.051557239
359.0098267,0.050377
357.9977417,0.050392177
356.9854431,0.049690742
356.0119629,0.049082074
354.9994202,0.048892275
353.9866943,0.048039582
353.0128174,0.047528863
351.9998474,0.046839818
350.9866943,0.046503142
